Time (seconds),Temp,Humid,Light
3.16,26.8,31,0
9.61,26.82,29,0
16.07,26.63,28,0
22.55,26.44,28,0
29.01,26.29,28,0
35.48,26.22,28,0
41.94,26.12,28,0
48.41,26.04,28,0
54.88,25.97,28,0
61.34,25.91,28,0
67.81,25.84,28,0
74.28,25.78,28,0
80.74,25.75,28,0
87.21,25.71,28,0
93.68,25.62,28,0
100.15,25.51,28,0
106.61,25.49,28,0
113.08,25.45,28,0
119.54,25.4,27,0
126.01,25.33,28,0
132.48,25.24,28,0
138.94,25.18,29,0
145.41,25.14,29,0
151.87,25.11,28,0
158.34,25.06,28,0
164.80,25.01,29,0
171.27,24.96,29,0
177.73,24.92,29,0
184.19,24.9,29,0
190.66,24.91,29,0
197.12,24.88,28,0
203.58,24.89,28,0
210.05,24.86,28,0
216.51,24.81,28,0
222.97,24.78,29,0
229.43,24.76,29,0
235.89,24.72,28,0
242.36,24.67,29,0
248.82,24.65,29,0
255.28,24.66,29,0
261.75,24.67,28,0
268.21,24.66,28,0
274.67,24.64,28,0
281.14,24.61,29,0
287.60,24.61,29,0
294.06,24.6,29,0
300.53,24.59,28,0
306.99,24.58,28,0
313.45,24.54,28,0
319.92,24.5,29,0
326.38,24.48,29,0
332.84,24.46,29,0
339.31,24.42,29,0
345.77,24.4,29,0
352.23,24.38,30,0
358.69,24.36,30,0
365.15,24.36,30,0
371.61,24.33,29,0
378.07,24.32,30,0
384.54,24.32,30,0
391.00,24.31,29,0
397.46,24.29,29,0
403.92,24.28,30,0
410.38,24.28,30,0
416.84,24.28,30,0
423.31,24.25,30,0
429.77,24.25,30,0
436.23,24.25,30,0
442.69,24.24,29,0
449.15,24.23,29,0
455.61,24.2,30,0
462.07,24.19,30,0
468.53,24.17,30,0
474.99,24.16,30,0
481.45,24.14,30,0
487.91,24.1,30,0
494.37,24.1,30,0
500.83,24.1,30,0
507.30,24.1,30,0
513.76,24.11,30,0
520.22,24.1,30,0
526.68,24.09,30,0
533.14,24.09,30,0
539.60,24.09,30,0
546.06,24.09,30,0
552.52,24.08,30,0
558.98,24.06,29,0
565.44,24.04,30,0
571.90,24.03,30,0
578.36,24.01,30,0
584.82,24,31,0
591.28,24,30,0
597.74,24.01,30,0
604.20,24.01,29,0
610.66,24,29,0
617.12,23.99,30,0
623.58,23.97,30,0
630.05,23.96,30,0
636.51,23.95,29,0
642.97,23.95,30,0
649.43,23.95,30,0
655.89,23.96,30,0
662.35,23.92,30,0
668.81,23.92,30,0
675.27,23.91,30,0
681.73,23.93,30,0
688.19,23.94,30,0
694.66,23.93,30,0
701.12,23.94,30,0
707.58,23.93,30,0
714.04,23.93,30,0
720.50,23.92,30,0
726.96,23.91,30,0
733.42,23.91,30,0
739.89,23.91,30,0
746.35,23.88,31,0
752.81,23.88,31,0
759.27,23.87,31,0
765.73,23.87,31,0
772.19,23.86,31,0
778.65,23.85,32,0
785.11,23.86,32,0
791.57,23.84,31,0
798.04,23.85,31,0
804.49,23.85,31,0
810.95,23.86,31,0
817.42,23.85,30,0
823.88,23.83,31,0
830.34,23.82,31,0
836.80,23.82,31,0
843.26,23.81,31,0
849.72,23.79,31,0
856.19,23.8,31,0
862.65,23.8,31,0
869.10,23.8,30,0
875.56,23.78,30,0
882.03,23.78,31,0
888.48,23.79,31,0
894.94,23.78,30,0
901.40,23.77,31,0
907.86,23.77,31,0
914.32,23.75,30,0
920.78,23.75,30,0
927.24,23.75,31,0
933.70,23.75,30,0
940.16,23.75,30,0
946.62,23.75,30,0
953.08,23.75,31,0
959.54,23.74,31,0
966.00,23.74,31,0
972.46,23.73,31,0
978.92,23.73,31,0
985.39,23.74,31,0
991.85,23.72,32,0
998.31,23.72,31,0
1004.77,23.71,31,0
1011.23,23.69,31,0
1017.69,23.7,31,0
1024.15,23.7,31,0
1030.61,23.69,31,0
1037.07,23.7,31,0
1043.53,23.69,31,0
1049.99,23.67,32,0
1056.45,23.68,32,0
1062.91,23.67,31,0
1069.37,23.67,32,0
1075.83,23.68,31,0
1082.30,23.67,31,0
1088.75,23.67,30,0
1095.21,23.66,30,0
1101.68,23.66,31,0
1108.14,23.65,31,0
1114.60,23.66,31,0
1121.06,23.64,31,0
1127.52,23.64,31,0
1133.98,23.64,30,0
1140.44,23.64,30,0
1146.90,23.64,30,0
1153.36,23.64,30,0
1159.82,23.64,30,0
1166.28,23.63,30,0
1172.74,23.62,31,0
1179.20,23.63,32,0
1185.66,23.63,32,0
1192.12,23.61,31,0
1198.58,23.61,31,0
1205.04,23.61,31,0
1211.50,23.61,31,0
1217.96,23.6,31,0
1224.42,23.58,31,0
1230.88,23.59,31,0
1237.34,23.59,31,0
1243.80,23.57,31,0
1250.26,23.56,31,0
1256.72,23.55,31,0
1263.18,23.56,32,0
1269.64,23.55,31,0
1276.10,23.55,32,0
1282.56,23.56,32,0
1289.02,23.56,32,0
1295.48,23.54,32,0
1301.94,23.55,32,0
1308.40,23.54,32,0
1314.86,23.55,32,0
1321.44,23.55,31,0
1327.91,23.54,31,0
1334.36,23.54,31,0
1340.82,23.54,31,0
1347.28,23.54,31,0
1353.74,23.54,32,0
1360.20,23.51,32,0
1366.66,23.52,32,0
1373.12,23.51,32,0
1379.58,23.51,32,0
1386.03,23.52,32,0
1392.49,23.51,31,0
1398.95,23.51,31,0
1405.41,23.49,32,0
1411.87,23.48,32,0
1418.32,23.48,32,0
1424.78,23.48,32,0
1431.24,23.47,32,0
1437.70,23.48,32,0
1444.17,23.48,32,0
1450.63,23.48,32,0
1457.09,23.48,31,0
1463.55,23.48,32,0
1470.01,23.48,32,0
1476.47,23.48,32,0
1482.93,23.48,31,0
1489.39,23.45,31,0
1495.85,23.45,31,0
1502.31,23.44,31,0
1508.77,23.44,32,0
1515.23,23.43,32,0
1521.69,23.44,32,0
1528.15,23.44,32,0
1534.61,23.44,33,0
1541.06,23.44,32,0
1547.52,23.44,32,0
1553.98,23.43,32,0
1560.44,23.42,32,0
1566.90,23.43,33,0
1573.36,23.43,33,0
1579.82,23.42,32,0
1586.28,23.42,32,0
1592.73,23.42,33,0
1599.19,23.41,32,0
1605.65,23.41,32,0
1612.11,23.4,32,0
1618.57,23.41,32,0
1625.03,23.41,32,0
1631.49,23.41,32,0
1637.94,23.4,32,0
1644.40,23.4,32,0
1650.86,23.4,32,0
1657.32,23.4,32,0
1663.78,23.39,33,0
1670.24,23.4,33,0
1676.70,23.4,33,0
1683.16,23.4,33,0
1689.61,23.39,32,0
1696.07,23.39,32,0
1702.54,23.39,33,0
1708.99,23.39,32,0
1715.46,23.38,32,0
1721.92,23.39,32,0
1728.37,23.38,33,0
1734.84,23.38,33,0
1741.30,23.38,33,0
1747.76,23.38,33,0
1754.21,23.37,33,0
1760.67,23.38,33,0
1767.13,23.38,33,0
1773.59,23.38,32,0
1780.05,23.38,32,0
1786.52,23.38,32,0
1792.97,23.37,32,0
1799.43,23.36,33,0
1805.89,23.36,33,0
1812.36,23.36,33,0
1818.81,23.36,32,0
1825.27,23.35,33,0
1831.73,23.35,33,0
1838.19,23.36,33,0
1844.65,23.35,33,0
1851.11,23.35,33,0
1857.57,23.34,33,0
1864.03,23.34,33,0
1870.49,23.34,33,0
1876.95,23.34,33,0
1883.41,23.33,33,0
1889.87,23.32,33,0
1896.33,23.33,32,0
1902.78,23.33,33,0
1909.24,23.33,33,0
1915.71,23.32,33,0
1922.16,23.33,33,0
1928.62,23.32,33,0
1935.08,23.32,33,0
1941.54,23.32,33,0
1948.00,23.32,33,0
1954.45,23.33,33,0
1960.91,23.32,33,0
1967.37,23.31,33,0
1973.83,23.32,33,0
1980.29,23.31,34,0
1986.75,23.31,33,0
1993.21,23.3,32,0
1999.67,23.3,32,0
2006.13,23.31,33,0
2012.59,23.3,32,0
2019.05,23.29,32,0
2025.51,23.29,33,0
2031.97,23.29,33,0
2038.43,23.29,33,0
2044.89,23.29,32,0
2051.35,23.28,33,0
2057.81,23.28,33,0
2064.27,23.28,33,0
2070.73,23.28,32,0
2077.19,23.29,32,0
2083.65,23.29,32,0
2090.11,23.28,32,0
2096.57,23.28,33,0
2103.03,23.29,33,0
2109.49,23.28,33,0
2115.95,23.29,33,0
2122.41,23.29,33,0
2128.87,23.28,33,0
2135.33,23.28,33,0
2141.79,23.28,33,0
2148.25,23.28,33,0
2154.71,23.28,32,0
2161.17,23.28,33,0
2167.64,23.27,32,0
2174.09,23.27,32,0
2180.55,23.27,33,0
2187.01,23.26,33,0
2193.47,23.25,33,0
2199.93,23.25,33,0
2206.39,23.25,33,0
2212.85,23.24,33,0
2219.31,23.24,33,0
2225.77,23.23,33,0
2232.23,23.23,32,0
2238.69,23.24,32,0
2245.15,23.23,33,0
2251.61,23.24,33,0
2258.07,23.23,33,0
2264.53,23.23,33,0
2270.99,23.22,33,0
2277.45,23.22,33,0
2283.91,23.21,33,0
2290.37,23.22,33,0
2296.83,23.21,33,0
2303.29,23.21,33,0
2309.75,23.21,32,0
2316.21,23.21,33,0
2322.67,23.21,33,0
2329.13,23.21,33,0
2335.59,23.21,33,0
2342.05,23.2,33,0
2348.51,23.2,33,0
2354.97,23.2,33,0
2361.43,23.2,33,0
2367.89,23.2,33,0
2374.35,23.2,33,0
2380.81,23.2,32,0
2387.27,23.2,32,0
2393.73,23.18,33,0
2400.19,23.19,33,0
2406.65,23.19,33,0
2413.11,23.19,33,0
2419.57,23.19,33,0
2426.03,23.18,33,0
2432.49,23.18,33,0
2438.95,23.18,33,0
2445.40,23.18,33,0
2451.86,23.17,32,0
2458.32,23.16,32,0
2464.78,23.16,33,0
2471.24,23.17,33,0
2477.70,23.17,33,0
2484.16,23.17,33,0
2490.62,23.17,32,0
2497.07,23.16,32,0
2503.54,23.16,33,0
2509.99,23.15,33,0
2516.45,23.15,33,0
2522.91,23.16,33,0
2529.37,23.15,33,0
2535.83,23.15,32,0
2542.29,23.14,32,0
2548.74,23.14,33,0
2555.20,23.14,33,0
2561.66,23.14,33,0
2568.12,23.14,33,0
2574.58,23.14,33,0
2581.04,23.14,33,0
2587.50,23.13,34,0
2593.96,23.14,33,0
2600.41,23.13,33,0
2606.87,23.13,33,0
2613.33,23.14,33,0
2619.79,23.14,33,0
2626.25,23.13,33,0
2632.71,23.14,33,0
2639.17,23.13,33,0
2645.63,23.13,32,0
2652.09,23.12,33,0
2658.54,23.12,33,0
2665.00,23.13,33,0
2671.47,23.12,33,0
2677.92,23.12,33,0
2684.38,23.12,33,0
2690.84,23.12,32,0
2697.30,23.12,32,0
2703.75,23.12,33,0
2710.21,23.11,33,0
2716.67,23.11,33,0
2723.25,23.11,33,0
2729.71,23.11,33,0
2736.17,23.1,33,0
2742.62,23.1,33,0
2749.08,23.1,33,0
2755.54,23.09,33,0
2762.00,23.1,33,0
2768.46,23.08,33,0
2774.91,23.08,33,0
2781.37,23.09,33,0
2787.83,23.09,33,0
2794.29,23.09,33,0
2800.74,23.09,33,0
2807.20,23.09,33,0
2813.66,23.09,34,0
2820.12,23.09,33,0
2826.58,23.08,33,0
2833.03,23.08,33,0
2839.49,23.09,33,0
2845.95,23.08,33,0
2852.40,23.08,33,0
2858.86,23.08,33,0
2865.32,23.08,33,0
2871.78,23.07,33,0
2878.24,23.08,33,0
2884.69,23.08,33,0
2891.15,23.07,32,0
2897.61,23.07,32,0
2904.06,23.08,33,0
2910.52,23.07,33,0
2916.98,23.07,33,0
2923.43,23.08,33,0
2929.89,23.08,33,0
2936.35,23.07,33,0
2942.80,23.08,33,0
2949.26,23.07,33,0
2955.72,23.05,33,0
2962.17,23.05,33,0
2968.63,23.06,33,0
2975.09,23.06,33,0
2981.55,23.06,33,0
2988.01,23.05,33,0
2994.46,23.05,33,0
3000.93,23.06,33,0
3007.38,23.05,33,0
3013.84,23.05,33,0
3020.30,23.04,33,0
3026.76,23.05,33,0
3033.22,23.05,33,0
3039.67,23.05,33,0
3046.13,23.05,33,0
3052.59,23.05,33,0
3059.04,23.04,33,0
3065.50,23.05,33,0
3071.96,23.04,33,0
3078.42,23.04,33,0
3084.87,23.04,33,0
3091.33,23.04,32,0
3097.80,23.03,33,0
3104.25,23.03,33,0
3110.71,23.03,33,0
3117.17,23.02,32,0
3123.63,23.01,33,0
3130.09,23.02,33,0
3136.55,23.01,33,0
3143.00,23,33,0
3149.46,23.01,33,0
3155.92,23,32,0
3162.38,23,33,0
3168.83,23.01,33,0
3175.29,23.02,33,0
3181.75,23.01,33,0
3188.21,23.01,32,0
3194.67,23.01,32,0
3201.13,23.02,33,0
3207.58,23,33,0
3214.04,23,33,0
3220.50,23,33,0
3226.96,23,33,0
3233.42,23.01,33,0
3239.87,23,33,0
3246.33,23,33,0
3252.78,23,33,0
3259.24,23,32,0
3265.70,23,33,0
3272.15,22.99,33,0
3278.61,23,33,0
3285.07,23,33,0
3291.52,23,33,0
3297.98,22.99,33,0
3304.44,22.98,32,0
3310.90,22.98,32,0
3317.36,22.98,32,0
3323.82,22.98,32,0
3330.28,22.98,32,0
3336.73,22.97,32,0
3343.20,22.98,33,0
3349.65,22.97,33,0
3356.11,22.97,33,0
3362.57,22.97,33,0
3369.03,22.98,33,0
3375.49,22.98,33,0
3381.95,22.98,33,0
3388.40,22.98,33,0
3394.86,22.98,33,0
3401.32,22.98,33,0
3407.78,22.97,32,0
3414.24,22.98,32,0
3420.69,22.97,32,0
3427.16,22.98,33,0
3433.61,22.98,33,0
3440.07,22.97,33,0
3446.53,22.97,33,0
3452.99,22.97,33,0
3459.45,22.97,33,0
3465.91,22.97,32,0
3472.36,22.96,33,0
3478.82,22.96,33,0
3485.28,22.97,33,0
3491.73,22.97,33,0
3498.19,22.97,33,0
3504.65,22.97,33,0
3511.11,22.97,33,0
3517.56,22.97,33,0
3524.02,22.96,33,0
3530.48,22.95,33,0
3536.94,22.95,33,0
3543.39,22.95,33,0
3549.85,22.95,33,0
3556.30,22.95,33,0
3562.76,22.94,33,0
3569.22,22.94,33,0
3575.67,22.93,33,0
3582.13,22.94,33,0
3588.59,22.93,33,0
3595.04,22.93,33,0
3601.50,22.93,33,0
3607.95,22.93,33,0
3614.41,22.93,33,0
3620.87,22.93,33,0
3627.32,22.92,33,0
3633.78,22.92,33,0
3640.24,22.92,33,0
3646.69,22.92,33,0
3653.15,22.91,33,0
3659.61,22.91,33,0
3666.07,22.91,33,0
3672.52,22.92,33,0
3678.98,22.91,32,0
3685.44,22.92,33,0
3691.89,22.92,33,0
3698.35,22.9,32,0
3704.80,22.91,33,0
3711.26,22.91,33,0
3717.72,22.91,33,0
3724.18,22.91,33,0
3730.63,22.91,33,0
3737.09,22.92,33,0
3743.55,22.93,33,0
3750.00,22.94,33,0
3756.46,22.93,33,0
3762.92,22.93,33,0
3769.38,22.94,33,0
3775.83,22.94,33,0
3782.29,22.94,33,0
3788.75,22.94,33,0
3795.21,22.94,32,0
3801.67,22.93,32,0
3808.12,22.94,32,0
3814.58,22.94,32,0
3821.04,22.93,32,0
3827.50,22.92,32,0
3833.96,22.93,32,0
3840.41,22.93,32,0
3846.87,22.92,32,0
3853.33,22.93,33,0
3859.79,22.92,32,0
3866.24,22.93,33,0
3872.70,22.93,33,0
3879.16,22.93,33,0
3885.61,22.93,33,0
3892.07,22.94,33,0
3898.52,22.92,33,0
3904.98,22.92,33,0
3911.44,22.92,33,0
3917.89,22.92,33,0
3924.35,22.92,33,0
3930.81,22.92,33,0
3937.26,22.92,33,0
3943.72,22.93,33,0
3950.18,22.93,33,0
3956.64,22.92,33,0
3963.09,22.92,33,0
3969.55,22.92,33,0
3976.01,22.92,33,0
3982.46,22.92,33,0
3988.92,22.91,33,0
3995.37,22.9,33,0
4001.83,22.9,33,0
4008.29,22.9,33,0
4014.74,22.9,32,0
4021.20,22.9,32,0
4027.66,22.89,33,0
4034.12,22.89,33,0
4040.57,22.89,33,0
4047.03,22.89,33,0
4053.49,22.89,33,0
4059.94,22.89,33,0
4066.40,22.88,33,0
4072.86,22.88,33,0
4079.31,22.88,33,0
4085.77,22.89,33,0
4092.23,22.88,33,0
4098.68,22.88,32,0
4105.14,22.88,32,0
4111.60,22.87,33,0
4118.05,22.88,33,0
4124.51,22.88,33,0
4131.09,22.88,32,0
4137.54,22.88,32,0
4144.00,22.88,33,0
4150.46,22.88,33,0
4156.91,22.88,33,0
4163.37,22.88,33,0
4169.82,22.88,33,0
4176.28,22.88,32,0
4182.73,22.88,33,0
4189.19,22.88,33,0
4195.65,22.88,33,0
4202.10,22.88,33,0
4208.56,22.88,33,0
4215.02,22.88,33,0
4221.47,22.87,33,0
4227.93,22.88,33,0
4234.39,22.88,33,0
4240.85,22.87,33,0
4247.30,22.87,33,0
4253.76,22.88,33,0
4260.22,22.87,33,0
4266.67,22.87,33,0
4273.13,22.88,33,0
4279.59,22.88,33,0
4286.04,22.88,33,0
4292.50,22.88,33,0
4298.96,22.88,33,0
4305.41,22.87,32,0
4311.87,22.86,32,0
4318.32,22.86,32,0
4324.78,22.87,33,0
4331.24,22.85,33,0
4337.69,22.85,33,0
4344.15,22.86,33,0
4350.61,22.86,33,0
4357.07,22.86,33,0
4363.53,22.86,33,0
4369.98,22.85,33,0
4376.44,22.86,33,0
4382.90,22.86,33,0
4389.35,22.85,33,0
4395.81,22.84,33,0
4402.27,22.84,33,0
4408.72,22.84,33,0
4415.18,22.84,33,0
4421.64,22.83,33,0
4428.09,22.83,33,0
4434.55,22.83,33,0
4441.01,22.82,33,0
4447.46,22.83,33,0
4453.92,22.83,33,0
4460.38,22.82,33,0
4466.83,22.83,33,0
4473.28,22.83,33,0
4479.74,22.83,33,0
4486.19,22.83,32,0
4492.65,22.84,32,0
4499.10,22.83,33,0
4505.56,22.84,33,0
4512.02,22.85,33,0
4518.47,22.86,33,0
4524.93,22.86,33,0
4531.38,22.87,33,0
4537.84,22.88,33,0
4544.29,22.88,33,0
4550.75,22.88,33,0
4557.21,22.88,33,0
4563.66,22.88,33,0
4570.12,22.88,33,0
4576.57,22.88,33,0
4583.03,22.87,33,0
4589.48,22.87,33,0
4595.94,22.87,33,0
4602.40,22.87,32,0
4608.85,22.86,32,0
4615.31,22.87,32,0
4621.76,22.87,33,0
4628.22,22.85,33,0
4634.68,22.85,33,0
4641.13,22.84,32,0
4647.59,22.86,33,0
4654.04,22.86,33,0
4660.50,22.85,33,0
4666.96,22.85,33,0
4673.41,22.86,33,0
4679.87,22.85,33,0
4686.33,22.85,33,0
4692.78,22.85,33,0
4699.24,22.85,33,0
4705.69,22.85,33,0
4712.15,22.85,33,0
4718.60,22.85,33,0
4725.06,22.86,33,0
4731.52,22.87,33,0
4737.97,22.88,33,0
4744.43,22.87,33,0
4750.88,22.87,33,0
4757.34,22.87,33,0
4763.80,22.87,33,0
4770.25,22.87,33,0
4776.71,22.87,33,0
4783.17,22.85,33,0
4789.62,22.85,33,0
4796.08,22.85,32,0
4802.53,22.84,32,0
4808.99,22.85,33,0
4815.45,22.85,33,0
4821.90,22.85,33,0
4828.36,22.85,33,0
4834.82,22.85,33,0
4841.27,22.85,33,0
4847.73,22.84,33,0
4854.18,22.84,33,0
4860.64,22.84,33,0
4867.09,22.84,33,0
4873.55,22.84,33,0
4880.01,22.84,32,0
4886.46,22.83,33,0
4892.92,22.83,33,0
4899.37,22.83,33,0
4905.83,22.83,32,0
4912.29,22.83,33,0
4918.75,22.83,33,0
4925.21,22.82,32,0
4931.66,22.83,33,0
4938.12,22.83,33,0
4944.58,22.83,33,0
4951.04,22.83,33,0
4957.49,22.83,33,0
4963.95,22.84,33,0
4970.41,22.84,33,0
4976.86,22.84,33,0
4983.33,22.83,33,0
4989.78,22.84,33,0
4996.24,22.84,33,0
5002.69,22.83,33,0
5009.15,22.83,33,0
5015.61,22.83,33,0
5022.06,22.83,33,0
5028.52,22.83,33,0
5034.97,22.82,33,0
5041.43,22.83,33,0
5047.88,22.83,33,0
5054.34,22.82,33,0
5060.80,22.82,33,0
5067.25,22.82,33,0
5073.71,22.82,33,0
5080.16,22.82,33,0
5086.62,22.82,33,0
5093.08,22.82,33,0
5099.53,22.82,33,0
5105.99,22.82,33,0
5112.45,22.82,33,0
5118.90,22.82,33,0
5125.36,22.82,33,0
5131.82,22.82,33,0
5138.27,22.81,33,0
5144.73,22.82,33,0
5151.18,22.82,33,0
5157.64,22.81,33,0
5164.09,22.81,33,0
5170.55,22.81,33,0
5177.01,22.81,33,0
5183.46,22.81,33,0
5189.92,22.81,33,0
5196.38,22.81,33,0
5202.83,22.81,33,0
5209.29,22.8,33,0
5215.75,22.8,33,0
5222.20,22.81,33,0
5228.66,22.79,33,0
5235.11,22.8,33,0
5241.57,22.8,33,0
5248.02,22.79,33,0
5254.48,22.8,33,0
5260.94,22.8,33,0
5267.39,22.8,33,0
5273.85,22.8,33,0
5280.30,22.8,33,0
5286.76,22.8,33,0
5293.22,22.8,33,0
5299.67,22.8,33,0
5306.13,22.8,33,0
5312.58,22.8,33,0
5319.04,22.8,33,0
5325.50,22.8,33,0
5331.95,22.8,33,0
5338.41,22.8,33,0
5344.87,22.8,33,0
5351.32,22.8,33,0
5357.78,22.8,32,0
5364.23,22.79,32,0
5370.69,22.79,32,0
5377.15,22.78,33,0
5383.60,22.78,33,0
5390.06,22.78,33,0
5396.51,22.78,33,0
5402.97,22.77,33,0
5409.42,22.78,33,0
5415.88,22.78,33,0
5422.34,22.77,33,0
5428.79,22.78,33,0
5435.25,22.78,33,0
5441.71,22.77,33,0
5448.16,22.77,33,0
5454.62,22.77,33,0
5461.08,22.76,32,0
5467.53,22.76,33,0
5473.99,22.76,33,0
5480.45,22.76,33,0
5486.90,22.76,33,0
5493.36,22.76,33,0
5499.81,22.75,33,0
5506.27,22.75,33,0
5512.72,22.75,33,0
5519.18,22.76,33,0
5525.63,22.76,33,0
5532.21,22.76,33,0
5538.66,22.76,33,0
5545.12,22.77,33,0
5551.57,22.77,33,0
5558.03,22.77,33,0
5564.49,22.78,33,0
5570.94,22.77,33,0
5577.40,22.78,33,0
5583.85,22.77,33,0
5590.31,22.77,33,0
5596.76,22.77,33,0
5603.22,22.77,33,0
5609.67,22.77,33,0
5616.13,22.77,33,0
5622.58,22.77,33,0
5629.04,22.77,33,0
5635.49,22.78,33,0
5641.95,22.78,33,0
5648.40,22.77,33,0
5654.86,22.77,33,0
5661.31,22.78,33,0
5667.77,22.78,33,0
5674.23,22.78,33,0
5680.68,22.78,33,0
5687.14,22.78,33,0
5693.60,22.78,33,0
5700.05,22.78,33,0
5706.51,22.78,33,0
5712.96,22.78,33,0
5719.42,22.78,33,0
5725.88,22.77,33,0
5732.33,22.77,32,0
5738.79,22.77,33,0
5745.25,22.77,33,0
5751.70,22.77,33,0
5758.16,22.77,33,0
5764.62,22.77,33,0
5771.07,22.76,33,0
5777.53,22.76,33,0
5783.98,22.77,33,0
5790.44,22.78,33,0
5796.89,22.77,33,0
5803.35,22.76,33,0
5809.80,22.77,33,0
5816.26,22.76,33,0
5822.72,22.77,32,0
5829.17,22.76,33,0
5835.63,22.76,33,0
5842.09,22.76,33,0
5848.54,22.76,33,0
5855.00,22.76,33,0
5861.45,22.76,33,0
5867.91,22.75,33,0
5874.37,22.76,33,0
5880.82,22.76,33,0
5887.28,22.76,33,0
5893.73,22.76,33,0
5900.18,22.75,33,0
5906.64,22.76,33,0
5913.09,22.76,33,0
5919.55,22.76,33,0
5926.01,22.76,33,0
5932.46,22.76,33,0
5938.92,22.77,33,0
5945.37,22.76,33,0
5951.83,22.76,33,0
5958.28,22.75,33,0
5964.74,22.75,32,0
5971.19,22.76,33,0
5977.65,22.76,33,0
5984.11,22.76,33,0
5990.56,22.76,33,0
5997.02,22.76,32,0
6003.47,22.76,33,0
6009.93,22.76,33,0
6016.39,22.76,33,0
6022.84,22.76,33,0
6029.30,22.75,33,0
6035.75,22.76,33,0
6042.21,22.76,33,0
6048.67,22.76,33,0
6055.12,22.76,33,0
6061.58,22.75,33,0
6068.03,22.75,33,0
6074.49,22.75,33,0
6080.94,22.75,33,0
6087.40,22.75,33,0
6093.85,22.75,33,0
6100.31,22.74,33,0
6106.76,22.75,33,0
6113.22,22.75,33,0
6119.67,22.75,33,0
6126.13,22.75,33,0
6132.58,22.75,33,0
6139.04,22.75,33,0
6145.50,22.76,33,0
6151.95,22.76,33,0
6158.41,22.76,33,0
6164.87,22.76,33,0
6171.32,22.76,33,0
6177.78,22.76,33,0
6184.24,22.76,33,0
6190.69,22.75,32,0
6197.15,22.75,33,0
6203.60,22.75,33,0
6210.06,22.74,33,0
6216.51,22.74,33,0
6222.97,22.75,33,0
6229.43,22.75,33,0
6235.88,22.74,33,0
6242.34,22.75,33,0
6248.79,22.75,33,0
6255.25,22.75,33,0
6261.71,22.74,33,0
6268.16,22.74,33,0
6274.61,22.74,33,0
6281.07,22.74,33,0
6287.52,22.74,32,0
6293.98,22.74,33,0
6300.43,22.74,33,0
6306.89,22.74,33,0
6313.34,22.75,33,0
6319.80,22.74,33,0
6326.25,22.73,33,0
6332.70,22.73,32,0
6339.16,22.73,32,0
6345.61,22.74,33,0
6352.07,22.73,33,0
6358.53,22.74,33,0
6364.98,22.73,32,0
6371.44,22.74,33,0
6377.90,22.73,32,0
6384.35,22.73,32,0
6390.81,22.73,33,0
6397.26,22.73,33,0
6403.72,22.73,33,0
6410.18,22.73,33,0
6416.64,22.73,33,0
6423.09,22.73,33,0
6429.55,22.73,33,0
6436.00,22.72,33,0
6442.46,22.72,32,0
6448.92,22.72,32,0
6455.38,22.71,32,0
6461.83,22.71,33,0
6468.29,22.72,33,0
6474.75,22.72,33,0
6481.20,22.72,33,0
6487.66,22.72,33,0
6494.11,22.72,32,0
6500.57,22.72,32,0
6507.03,22.72,33,0
6513.48,22.71,33,0
6519.93,22.72,33,0
6526.39,22.72,33,0
6532.84,22.72,33,0
6539.30,22.72,32,0
